## Nanoindentation measurements of load F (mN) and depth h (nm) of fused silica material
## with Berkovich diamond tip, data contains only unload part of indentation curve
## source: Czech Metrology Institute, Brno, Czech Republic

h	F
70.660000	0.606600
70.763000	0.605700
70.842000	0.604600
70.442400	0.602100
70.179000	0.599200
70.221100	0.599100
70.414800	0.596100
70.406300	0.594700
70.442000	0.591900
70.479200	0.589400
69.681000	0.588000
69.689700	0.586700
69.739400	0.583100
69.431200	0.581300
69.782500	0.581000
69.645200	0.577300
69.473900	0.575800
69.365100	0.573800
68.876600	0.572300
69.014500	0.568400
68.898900	0.568700
68.646600	0.566100
68.544200	0.563300
68.708500	0.562100
68.539400	0.558400
68.878500	0.560100
68.538500	0.553300
67.926700	0.554400
68.093600	0.552800
68.156400	0.547700
68.516800	0.549000
67.501100	0.545100
67.650600	0.543000
67.824200	0.543700
67.414900	0.538300
67.321100	0.539000
67.170300	0.532000
67.302300	0.537800
66.342300	0.527300
66.535900	0.532800
66.580500	0.526600
66.468100	0.525100
66.576400	0.524500
66.226800	0.520400
66.168600	0.519300
65.950900	0.516900
65.724700	0.515300
65.894300	0.513100
65.507600	0.510700
65.885100	0.510200
65.652400	0.504600
65.490200	0.506700
65.566400	0.501400
66.156000	0.502900
65.025200	0.497800
64.923100	0.496400
64.837900	0.495500
64.797500	0.491600
64.985000	0.492200
64.217500	0.486600
64.315400	0.486700
64.604700	0.486300
64.154200	0.480800
64.390500	0.483700
63.892700	0.475800
64.083900	0.478400
63.480700	0.473300
63.755800	0.474200
63.382400	0.469500
63.371100	0.467600
63.334500	0.467800
63.009000	0.463300
63.363600	0.463300
62.615400	0.459400
62.950900	0.460300
62.579300	0.453500
63.023600	0.455900
61.936800	0.449200
62.258900	0.453300
62.008800	0.443700
62.714200	0.451900
61.684800	0.438700
62.122500	0.445800
61.571400	0.437500
61.514600	0.438400
61.284600	0.436300
61.447500	0.433900
61.420900	0.432500
60.813600	0.427400
61.460600	0.430300
61.156800	0.423300
60.949100	0.424500
60.886700	0.422400
60.429600	0.419900
60.407800	0.416700
60.710600	0.416900
60.064600	0.413200
60.299700	0.412100
60.194900	0.408800
60.418500	0.408100
59.980100	0.405800
59.743200	0.404300
59.650900	0.401400
59.710000	0.398500
59.352200	0.398900
59.344600	0.395200
59.421200	0.393300
59.238800	0.391600
59.025900	0.389300
58.886900	0.387100
58.468900	0.385100
58.695000	0.382200
58.422900	0.383000
58.432800	0.376500
58.463400	0.378000
58.121100	0.375500
57.850300	0.371900
57.934800	0.370900
57.546000	0.370100
57.358700	0.366500
57.594600	0.365300
57.247000	0.362100
57.801200	0.363000
56.961000	0.357100
57.345600	0.359600
56.625000	0.352900
56.756100	0.355500
56.353800	0.348100
56.966700	0.351700
56.974000	0.344700
56.770800	0.348100
55.873100	0.339900
56.604300	0.345800
55.226500	0.336700
55.558500	0.338600
55.679200	0.333500
55.924400	0.334400
55.166200	0.330000
55.613100	0.330600
54.942600	0.325700
54.834400	0.325600
54.967800	0.321900
54.829700	0.322700
54.603100	0.316800
54.932900	0.319100
54.218000	0.312700
54.262300	0.313400
54.238200	0.310600
54.404100	0.309700
53.782800	0.305700
53.752200	0.304800
53.973500	0.303900
53.399300	0.299100
53.725500	0.300600
53.510200	0.295800
53.355100	0.294300
52.938100	0.291900
53.488400	0.292100
52.769300	0.288300
53.077600	0.286000
52.713400	0.285700
52.367200	0.281300
52.778200	0.281400
52.230600	0.279400
52.171400	0.275500
51.870500	0.274700
52.157800	0.272500
51.779300	0.269200
51.791200	0.269600
51.538000	0.266000
51.495500	0.264000
51.195200	0.263100
51.087300	0.259700
50.771500	0.258800
50.694600	0.255100
51.020100	0.256400
50.231700	0.249500
50.374700	0.250700
50.196600	0.247400
50.309000	0.246700
50.035100	0.243700
49.765100	0.242000
49.782500	0.240000
49.145300	0.237500
49.771400	0.236800
49.410400	0.232600
49.736100	0.232700
48.816600	0.228500
49.343400	0.228600
48.605300	0.225200
48.547400	0.223000
48.696000	0.222800
48.581700	0.217200
48.576400	0.218600
47.863100	0.214300
48.096200	0.215700
47.762700	0.207500
48.186400	0.213200
47.155000	0.203900
47.728900	0.206800
47.180500	0.202200
47.373800	0.202100
47.202100	0.199600
46.644200	0.195200
47.326700	0.197200
47.001500	0.192000
46.363700	0.191500
46.266500	0.189000
46.172400	0.187300
46.428800	0.184700
46.133000	0.183400
45.937500	0.180200
46.179700	0.179800
45.726400	0.176100
45.682200	0.175100
45.441000	0.172400
45.511100	0.172100
45.654500	0.166800
45.060800	0.166100
44.918500	0.165800
44.350300	0.161500
44.846600	0.160600
44.784900	0.160400
44.316200	0.155800
43.929500	0.153700
44.163800	0.155200
44.030500	0.149600
44.004900	0.148200
43.656600	0.147800
43.392900	0.144300
43.573400	0.143600
43.032600	0.139200
43.554900	0.139700
42.932600	0.135900
42.921900	0.136300
42.655300	0.131700
42.830400	0.131700
41.993200	0.127800
42.066500	0.127900
42.035900	0.124200
42.135600	0.123000
41.586200	0.120100
41.542700	0.117600
41.260900	0.116300
40.833600	0.115000
40.950700	0.111700
41.044200	0.110200
40.703900	0.108100
40.623800	0.105000
40.551400	0.103700
40.763200	0.103900
39.855500	0.099000
40.091400	0.098400
39.725800	0.095900
39.639400	0.093700
39.592300	0.092800
39.162300	0.088800
38.904900	0.088600
38.618000	0.084000
39.182700	0.085200
38.294100	0.079900
38.805100	0.081000
37.895400	0.077200
38.082100	0.075700
37.632400	0.073700
38.081300	0.072700
37.384800	0.067400
37.466200	0.071000
36.780700	0.062100
37.222900	0.065300
36.842600	0.059200
36.774200	0.062700
36.097000	0.055700
36.624200	0.055900
35.953900	0.053100
36.417400	0.051500
35.249900	0.042000
33.575500	0.028300
31.713300	0.012400
26.125700	0.002900
16.557700	0.002100
1.382300	0.001800
